#
#"Frequency / MHz"	"S2,1 [SPara1] [Magnitude in dB]"
#---------------------------------------------------
0.13800000000000	-0.86382723874573
0.14231250000000	-0.87087313013279
0.14662500000000	-0.87829259771590
0.15093750000000	-0.88573009666901
0.15525000000000	-0.89247663245258
0.15956250000000	-0.90088716265617
0.16387500000000	-0.90866575015770
0.16818750000000	-0.91649956701204
0.17250000000000	-0.92425894823723
0.17681250000000	-0.93217935657711
0.18112500000000	-0.94013225592459
0.18543750000000	-0.94804482280981
0.18975000000000	-0.95633798102442
0.19406250000000	-0.96407325809317
0.19837500000000	-0.97291894049916
0.20268750000000	-0.98090153703299
0.20700000000000	-0.98918254653093
0.21131250000000	-0.99747797506834
0.21562500000000	-1.0058093058895
0.21993750000000	-1.0140449032003
0.22425000000000	-1.0227460020829
0.22856250000000	-1.0311678289122
0.23287500000000	-1.0396513233391
0.23718750000000	-1.0481281896547
0.24150000000000	-1.0566220396491
0.24581250000000	-1.0659710076998
0.25012500000000	-1.0736332344768
0.25443750000000	-1.0826382527182
0.25875000000000	-1.0913746133838
0.26306250000000	-1.0995681943390
0.26737500000000	-1.1084751662960
0.27168750000000	-1.1174196590611
0.27600000000000	-1.1262302415081
0.28031250000000	-1.1349162873704
0.28462500000000	-1.1438196819057
0.28893750000000	-1.1526967165411
0.29325000000000	-1.1614893256961
0.29756250000000	-1.1708495784295
0.30187500000000	-1.1795771188039
0.30618750000000	-1.1887587624013
0.31050000000000	-1.1972384269925
0.31481250000000	-1.2070408718698
0.31912500000000	-1.2141871809543
0.32343750000000	-1.2251989237761
0.32775000000000	-1.2347576809643
0.33206250000000	-1.2437696936858
0.33637500000000	-1.2533912278947
0.34068750000000	-1.2629654989401
0.34500000000000	-1.2726431902544
0.34931250000000	-1.2824349170840
0.35362500000000	-1.2919612101336
0.35793750000000	-1.3023903501019
0.36225000000000	-1.3118184278774
0.36656250000000	-1.3218123868188
0.37087500000000	-1.3323859717192
0.37518750000000	-1.3421202920547
0.37950000000000	-1.3523823471021
0.38381250000000	-1.3627997289301
0.38812500000000	-1.3727364053143
0.39243750000000	-1.3832063352232
0.39675000000000	-1.3943965215851
0.40106250000000	-1.4050162065489
0.40537500000000	-1.4162976382429
0.40968750000000	-1.4271926637961
0.41400000000000	-1.4382253414196
0.41831250000000	-1.4495921290249
0.42262500000000	-1.4609535437402
0.42693750000000	-1.4724015308417
0.43125000000000	-1.4842032403095
0.43556250000000	-1.4960104812851
0.43987500000000	-1.5078625620198
0.44418750000000	-1.5201271333840
0.44850000000000	-1.5323888582192
0.45281250000000	-1.5448802203933
0.45712500000000	-1.5572545525133
0.46143750000000	-1.5706274062288
0.46575000000000	-1.5830266234011
0.47006250000000	-1.5962226701686
0.47437500000000	-1.6092897979029
0.47868750000000	-1.6228522892552
0.48300000000000	-1.6366229152920
0.48731250000000	-1.6503015071177
0.49162500000000	-1.6644028854744
0.49593750000000	-1.6786465663356
0.50025000000000	-1.6929877063385
0.50456250000000	-1.7075585157551
0.50887500000000	-1.7221937543966
0.51318750000000	-1.7378116974190
0.51750000000000	-1.7524090346462
0.52181250000000	-1.7682022898614
0.52612500000000	-1.7835763732527
0.53043750000000	-1.7993821056409
0.53475000000000	-1.8154972072483
0.53906250000000	-1.8313545792771
0.54337500000000	-1.8479982341986
0.54768750000000	-1.8654771513981
0.55200000000000	-1.8820007149114
0.55631250000000	-1.8988010463145
0.56062500000000	-1.9172892930299
0.56493750000000	-1.9283156449297
0.56925000000000	-1.9518165549264
0.57356250000000	-1.9699814780979
0.57787500000000	-1.9880356384042
0.58218750000000	-2.0069522467470
0.58650000000000	-2.0253419635189
0.59081250000000	-2.0444889885731
0.59512500000000	-2.0643355270368
0.59943750000000	-2.0839871030220
0.60375000000000	-2.1037169968110
0.60806250000000	-2.1238318947552
0.61237500000000	-2.1440016896297
0.61668750000000	-2.1650935489599
0.62100000000000	-2.1855392411243
0.62531250000000	-2.2070941352507
0.62962500000000	-2.2256232243920
0.63393750000000	-2.2505423346736
0.63825000000000	-2.2724172900449
0.64256250000000	-2.2942163542225
0.64687500000000	-2.3171950748291
0.65118750000000	-2.3401802157056
0.65550000000000	-2.3633381694965
0.65981250000000	-2.3874676700847
0.66412500000000	-2.4097692488053
0.66843750000000	-2.4342596220304
0.67275000000000	-2.4586363869391
0.67706250000000	-2.4833116886436
0.68137500000000	-2.5085576870019
0.68568750000000	-2.5332771233412
0.69000000000000	-2.5589165936828
0.69431250000000	-2.5849014950953
0.69862500000000	-2.6112755431563
0.70293750000000	-2.6373779493271
0.70725000000000	-2.6660385264651
0.71156250000000	-2.6909436082705
0.71587500000000	-2.7186548390474
0.72018750000000	-2.7461306488498
0.72450000000000	-2.7742732189094
0.72881250000000	-2.8023871119336
0.73312500000000	-2.8308840373157
0.73743750000000	-2.8599318039661
0.74175000000000	-2.8891786575068
0.74606250000000	-2.9186149937939
0.75037500000000	-2.9486585834853
0.75468750000000	-2.9788612926684
0.75900000000000	-3.0092925081757
0.76331250000000	-3.0405103238333
0.76762500000000	-3.0716144184444
0.77193750000000	-3.1030382692837
0.77625000000000	-3.1351210717004
0.78056250000000	-3.1673320731901
0.78487500000000	-3.1999125181521
0.78918750000000	-3.2328988273961
0.79350000000000	-3.2663562895387
0.79781250000000	-3.3002529347782
0.80212500000000	-3.3338668435752
0.80643750000000	-3.3687082572057
0.81075000000000	-3.4036256032200
0.81506250000000	-3.4386622360160
0.81937500000000	-3.4743251875703
0.82368750000000	-3.5104106674008
0.82800000000000	-3.5466345097213
0.83231250000000	-3.5832892080829
0.83662500000000	-3.6203550531450
0.84093750000000	-3.6582620979124
0.84525000000000	-3.6953988317072
0.84956250000000	-3.7346279347580
0.85387500000000	-3.7735707984596
0.85818750000000	-3.8126948788491
0.86250000000000	-3.8525423787736
0.86681250000000	-3.8928493649713
0.87112500000000	-3.9335428317256
0.87543750000000	-3.9746182948013
0.87975000000000	-4.0161984521415
0.88406250000000	-4.0583087852727
0.88837500000000	-4.1007142521789
0.89268750000000	-4.1440879183410
0.89700000000000	-4.1874900013379
0.90131250000000	-4.2313952641002
0.90562500000000	-4.2761474184281
0.90993750000000	-4.3215143002302
0.91425000000000	-4.3672542880797
0.91856250000000	-4.4134550026545
0.92287500000000	-4.4604756517490
0.92718750000000	-4.5077592076618
0.93150000000000	-4.5554445725177
0.93581250000000	-4.6044624654134
0.94012500000000	-4.6546485925098
0.94443750000000	-4.7039820689825
0.94875000000000	-4.7541660664304
0.95306250000000	-4.8059554496373
0.95737500000000	-4.8576186423091
0.96168750000000	-4.9104150665430
0.96600000000000	-4.9642124027397
0.97031250000000	-5.0186594847084
0.97462500000000	-5.0719031638502
0.97893750000000	-5.1295500309761
0.98325000000000	-5.1860836734058
0.98756250000000	-5.2432294962942
0.99187500000000	-5.3018911725196
0.99618750000000	-5.3606659012615
1.0005000000000	-5.4208250163717
1.0048125000000	-5.4818585027047
1.0091250000000	-5.5442770917633
1.0134375000000	-5.6070988531754
1.0177500000000	-5.6713150459607
1.0220625000000	-5.7358324770699
1.0263750000000	-5.8027095494439
1.0306875000000	-5.8697134034488
1.0350000000000	-5.9372871524646
1.0393125000000	-6.0075449727042
1.0436250000000	-6.0785375510576
1.0479375000000	-6.1510018526484
1.0522500000000	-6.2238549599991
1.0565625000000	-6.2995380377795
1.0608750000000	-6.3751325782907
1.0651875000000	-6.4529071377183
1.0695000000000	-6.5314926559639
1.0738125000000	-6.6128338533148
1.0781250000000	-6.6949177390815
1.0824375000000	-6.7784413475145
1.0867500000000	-6.8633710626608
1.0910625000000	-6.9505993246552
1.0953750000000	-7.0408648758254
1.0996875000000	-7.1202404276525
1.1040000000000	-7.2220075750133
1.1083125000000	-7.3175815209281
1.1126250000000	-7.4145267040028
1.1169375000000	-7.5119554347638
1.1212500000000	-7.6135317663544
1.1255625000000	-7.7176724038154
1.1298750000000	-7.8228066815293
1.1341875000000	-7.9292139099271
1.1385000000000	-8.0384740002480
1.1428125000000	-8.1562674989323
1.1471250000000	-8.2666797491719
1.1514375000000	-8.3858531189889
1.1557500000000	-8.5059064757643
1.1600625000000	-8.6269065949296
1.1643750000000	-8.7572773863047
1.1686875000000	-8.8877247129677
1.1730000000000	-9.0191493500768
1.1773125000000	-9.1531415696531
1.1816250000000	-9.2977281823167
1.1859375000000	-9.4386622859227
1.1902500000000	-9.5862879608923
1.1945625000000	-9.7360323806143
1.1988750000000	-9.8869377844846
1.2031875000000	-10.048573901829
1.2075000000000	-10.207951966578
1.2118125000000	-10.375437214805
1.2161250000000	-10.546687187995
1.2204375000000	-10.720697453795
1.2247500000000	-10.902652380950
1.2290625000000	-11.086069724661
1.2333750000000	-11.275036570372
1.2376875000000	-11.469403258832
1.2420000000000	-11.668017934257
1.2463125000000	-11.872130281659
1.2506250000000	-12.082888571796
1.2549375000000	-12.297364461029
1.2592500000000	-12.519339584233
1.2635625000000	-12.745205456918
1.2678750000000	-12.976339726804
1.2721875000000	-13.211468812323
1.2765000000000	-13.457471372086
1.2808125000000	-13.705044854224
1.2851250000000	-13.955179675507
1.2894375000000	-14.222494895258
1.2937500000000	-14.486269447004
1.2980625000000	-14.750136749980
1.3023750000000	-15.028020696556
1.3066875000000	-15.303971730364
1.3110000000000	-15.585141415953
1.3153125000000	-15.865038829253
1.3196250000000	-16.151137659502
1.3239375000000	-16.436481812118
1.3282500000000	-16.717068554547
1.3325625000000	-16.996666641775
1.3368750000000	-17.266846468914
1.3411875000000	-17.537206050375
1.3455000000000	-17.778616448120
1.3498125000000	-18.021538190747
1.3541250000000	-18.243818212381
1.3584375000000	-18.439904119961
1.3627500000000	-18.617420517354
1.3670625000000	-18.759883385079
1.3713750000000	-18.881702306898
1.3756875000000	-18.962098464561
1.3800000000000	-19.010110610361
1.3843125000000	-19.008971577820
1.3886250000000	-18.994750630463
1.3929375000000	-18.937691622722
1.3972500000000	-18.845253962557
1.4015625000000	-18.725547813964
1.4058750000000	-18.577809769461
1.4101875000000	-18.406016537467
1.4145000000000	-18.216284727755
1.4188125000000	-18.006942956559
1.4231250000000	-17.783485713190
1.4274375000000	-17.553293200314
1.4317500000000	-17.315079103309
1.4360625000000	-17.069302524158
1.4403750000000	-16.821635556656
1.4446875000000	-16.570193592788
1.4490000000000	-16.321168351741
1.4533125000000	-16.072657803773
1.4576250000000	-15.822751490889
1.4619375000000	-15.582625293406
1.4662500000000	-15.343440148056
1.4705625000000	-15.107978165430
1.4748750000000	-14.874915366157
1.4791875000000	-14.649942117730
1.4835000000000	-14.428604292562
1.4878125000000	-14.210712153310
1.4921250000000	-14.000505095833
1.4964375000000	-13.793640228028
1.5007500000000	-13.593080397718
1.5050625000000	-13.396966054952
1.5093750000000	-13.208736092464
1.5136875000000	-13.018055575159
1.5180000000000	-12.839034993864
1.5223125000000	-12.662211754000
1.5266250000000	-12.486999310575
1.5309375000000	-12.323824276796
1.5352500000000	-12.159561866631
1.5395625000000	-12.000672691280
1.5438750000000	-11.846161706071
1.5481875000000	-11.694918961567
1.5525000000000	-11.548139917068
1.5568125000000	-11.404993617982
1.5611250000000	-11.265972074412
1.5654375000000	-11.129544835018
1.5697500000000	-10.997631996445
1.5740625000000	-10.867980889544
1.5783750000000	-10.741736610417
1.5826875000000	-10.618395457756
1.5870000000000	-10.496438535584
1.5913125000000	-10.380864809831
1.5956250000000	-10.266666001324
1.5999375000000	-10.154378023618
1.6042500000000	-10.045106239907
1.6085625000000	-9.9380687064426
1.6128750000000	-9.8335189788798
1.6171875000000	-9.7317380346711
1.6215000000000	-9.6315616226609
1.6258125000000	-9.5336178169963
1.6301250000000	-9.4381517308715
1.6344375000000	-9.3442358558056
1.6387500000000	-9.2521099269050
1.6430625000000	-9.1622434452979
1.6473750000000	-9.0738432934125
1.6516875000000	-8.9878839616720
1.6560000000000	-8.9022435652044
1.6603125000000	-8.8195424682606
1.6646250000000	-8.7379973932574
1.6689375000000	-8.6576105757589
1.6732500000000	-8.5793278245615
1.6775625000000	-8.5020972945510
1.6818750000000	-8.4260982088749
1.6861875000000	-8.3510564906632
1.6905000000000	-8.2786395420467
1.6948125000000	-8.2065025605534
1.6991250000000	-8.1356294099194
1.7034375000000	-8.0649142200910
1.7077500000000	-7.9970878202867
1.7120625000000	-7.9297140156755
1.7163750000000	-7.8632893549834
1.7206875000000	-7.7976839419072
1.7250000000000	-7.7335475515902
1.7293125000000	-7.6697596171486
1.7336250000000	-7.6071942088166
1.7379375000000	-7.5450889990664
1.7422500000000	-7.4842423922529
1.7465625000000	-7.4238968265190
1.7508750000000	-7.3642497005971
1.7551875000000	-7.3047010544982
1.7595000000000	-7.2480326583818
1.7638125000000	-7.1910571466810
1.7681250000000	-7.1346761119505
1.7724375000000	-7.0784236627424
1.7767500000000	-7.0240776904874
1.7810625000000	-6.9688457576695
1.7853750000000	-6.9152606879977
1.7896875000000	-6.8622717019629
1.7940000000000	-6.8095638157884
1.7983125000000	-6.7576197026237
1.8026250000000	-6.7056583554767
1.8069375000000	-6.6551364633717
1.8112500000000	-6.6060550182322
1.8155625000000	-6.5542296469337
1.8198750000000	-6.5050576842596
1.8241875000000	-6.4552849821468
1.8285000000000	-6.4074802694822
1.8328125000000	-6.3591221189156
1.8371250000000	-6.3118714935454
1.8414375000000	-6.2642264682174
1.8457500000000	-6.2182770361658
1.8500625000000	-6.1711353982497
1.8543750000000	-6.1249311627136
1.8586875000000	-6.0791264352878
1.8630000000000	-6.0340321740576
1.8673125000000	-5.9891029543096
1.8716250000000	-5.9443300950441
1.8759375000000	-5.9000860129262
1.8802500000000	-5.8569535354171
1.8845625000000	-5.8130605184898
1.8888750000000	-5.7705991582317
1.8931875000000	-5.7271647065009
1.8975000000000	-5.6844008093181
1.9018125000000	-5.6424006183273
1.9061250000000	-5.6005483229232
1.9104375000000	-5.5575542116878
1.9147500000000	-5.5173434559893
1.9190625000000	-5.4766601664471
1.9233750000000	-5.4363990465276
1.9276875000000	-5.3952108317396
1.9320000000000	-5.3552401215075
1.9363125000000	-5.3163497832463
1.9406250000000	-5.2760048026886
1.9449375000000	-5.2370654888321
1.9492500000000	-5.1981275518287
1.9535625000000	-5.1594880230529
1.9578750000000	-5.1210787216702
1.9621875000000	-5.0832376561687
1.9665000000000	-5.0451067382476
1.9708125000000	-5.0078298089623
1.9751250000000	-4.9703865237381
1.9794375000000	-4.9331760887731
1.9837500000000	-4.8960733935417
1.9880625000000	-4.8600116790225
1.9923750000000	-4.8241647102276
1.9966875000000	-4.7878500687727
2.0010000000000	-4.7520797350784
2.0053125000000	-4.7166898990288
2.0096250000000	-4.6815569563245
2.0139375000000	-4.6466618810967
2.0182500000000	-4.6119996208328
2.0225625000000	-4.5777099590800
2.0268750000000	-4.5436603966956
2.0311875000000	-4.5098837817342
2.0355000000000	-4.4770969038678
2.0398125000000	-4.4434322819070
2.0441250000000	-4.4105175089270
2.0484375000000	-4.3777622660389
2.0527500000000	-4.3450120843106
2.0570625000000	-4.3135444715539
2.0613750000000	-4.2814540055503
2.0656875000000	-4.2501436464970
2.0700000000000	-4.2188982009041
2.0743125000000	-4.1883216019386
2.0786250000000	-4.1576952695574
2.0829375000000	-4.1270941709859
2.0872500000000	-4.0964961631998
2.0915625000000	-4.0675123559453
2.0958750000000	-4.0376705139497
2.1001875000000	-4.0195114853357
2.1045000000000	-3.9802882131621
2.1088125000000	-3.9516155558003
2.1131250000000	-3.9235374100116
2.1174375000000	-3.8956594640218
2.1217500000000	-3.8680316408994
2.1260625000000	-3.8412976367829
2.1303750000000	-3.8143212040936
2.1346875000000	-3.7877421015782
2.1390000000000	-3.7613385626240
2.1433125000000	-3.7356944048049
2.1476250000000	-3.7103091246283
2.1519375000000	-3.6857039479165
2.1562500000000	-3.6601896642949
2.1605625000000	-3.6357318362666
2.1648750000000	-3.6110958895774
2.1691875000000	-3.5874678024650
2.1735000000000	-3.5624014486567
2.1778125000000	-3.5411421548794
2.1821250000000	-3.5182621408630
2.1864375000000	-3.4956928759474
2.1907500000000	-3.4735119697707
2.1950625000000	-3.4519870995072
2.1993750000000	-3.4305843911714
2.2036875000000	-3.4090504799981
2.2080000000000	-3.3889239253510
2.2123125000000	-3.3687451084864
2.2166250000000	-3.3487473917442
2.2209375000000	-3.3288468606039
2.2252500000000	-3.3096927643012
2.2295625000000	-3.2906193939275
2.2338750000000	-3.2727483097026
2.2381875000000	-3.2536407301457
2.2425000000000	-3.2365232581838
2.2468125000000	-3.2192486496735
2.2511250000000	-3.2022984593027
2.2554375000000	-3.1858448723285
2.2597500000000	-3.1692711930306
2.2640625000000	-3.1541443798676
2.2683750000000	-3.1374554268826
2.2726875000000	-3.1225175903289
2.2770000000000	-3.1074825801387
2.2813125000000	-3.0929983570393
2.2856250000000	-3.0788573509293
2.2899375000000	-3.0650703084075
2.2942500000000	-3.0516357489211
2.2985625000000	-3.0384748011463
2.3028750000000	-3.0256460062454
2.3071875000000	-3.0133562454228
2.3115000000000	-3.0010621247254
2.3158125000000	-2.9897949317141
2.3201250000000	-2.9783598977669
2.3244375000000	-2.9671641785663
2.3287500000000	-2.9559222047230
2.3330625000000	-2.9456472057561
2.3373750000000	-2.9358996871592
2.3416875000000	-2.9265003647530
2.3460000000000	-2.9168357186585
2.3503125000000	-2.9076568293939
2.3546250000000	-2.8987876351204
2.3589375000000	-2.8905151565833
2.3632500000000	-2.8820130819712
2.3675625000000	-2.8748776858159
2.3718750000000	-2.8670163722701
2.3761875000000	-2.8597753141923
2.3805000000000	-2.8530169941104
2.3848125000000	-2.8463368545279
2.3891250000000	-2.8396921477308
2.3934375000000	-2.8341148340922
2.3977500000000	-2.8297074796220
2.4020625000000	-2.8224358195329
2.4063750000000	-2.8171726342414
2.4106875000000	-2.8121179794896
2.4150000000000	-2.8074213070749
2.4193125000000	-2.8029564084354
2.4236250000000	-2.7986251394711
2.4279375000000	-2.7947366373390
2.4322500000000	-2.7913105550010
2.4365625000000	-2.7871366505136
2.4408750000000	-2.7840701292292
2.4451875000000	-2.7812941088197
2.4495000000000	-2.7783202836692
2.4538125000000	-2.7754877774067
2.4581250000000	-2.7734184707655
2.4624375000000	-2.7713570928760
2.4667500000000	-2.7689572360465
2.4710625000000	-2.7671204892973
2.4753750000000	-2.7661824042902
2.4796875000000	-2.7642783974729
2.4840000000000	-2.7628400632557
2.4883125000000	-2.7616496884081
2.4926250000000	-2.7606119597006
2.4969375000000	-2.7603058234827
2.5012500000000	-2.7594543994790
2.5055625000000	-2.7587920871075
2.5098750000000	-2.7583743866491
2.5141875000000	-2.7589256269773
2.5185000000000	-2.7583387303404
2.5228125000000	-2.7591419978876
2.5271250000000	-2.7587527735988
2.5314375000000	-2.7594048410714
2.5357500000000	-2.7597628295163
2.5400625000000	-2.7602171347313
2.5443750000000	-2.7608954208539
2.5486875000000	-2.7607405626445
2.5530000000000	-2.7630077488439
2.5573125000000	-2.7637357997315
2.5616250000000	-2.7646662936994
2.5659375000000	-2.7654963112766
2.5702500000000	-2.7672451513362
2.5745625000000	-2.7684492214651
2.5788750000000	-2.7699191559856
2.5831875000000	-2.7702417260823
2.5875000000000	-2.7728370058818
2.5918125000000	-2.7748298492981
2.5961250000000	-2.7765130371757
2.6004375000000	-2.7780619872607
2.6047500000000	-2.7796108582476
2.6090625000000	-2.7817466557995
2.6133750000000	-2.7833421916885
2.6176875000000	-2.7852863384064
2.6220000000000	-2.7873298059491
2.6263125000000	-2.7892874669376
